0.7141550695825039
0.6852868503266106
0.6520520753032812
0.6419054984959042
0.6181979628890538
0.6047552512541214
0.5965584475931129
0.5768042727650334
0.552746824710388
0.5339791943739319
0.5165521090615082
0.5089412441285434
0.5268740124050758
0.5056687258047133
0.48597810253294815
0.47555109520916616
0.47086887412279715
0.5408068116854544
0.5307491822793504
0.5292670978308253
0.5193194479857661
0.5172252017010684
0.5059948301509921
0.5019951994259212
0.4918526851812128
0.4831489219539831
0.4757811418144131
0.4689396316848121
0.4611582294216112
0.4517897844629246
0.4502333712870014
0.4416452733379298
0.4279563252423634
0.4245308734393373
0.4220643824793847
0.41691692658800017
0.40285143183171435
0.4190763295580206
0.41985659173244766
0.41343826375155845
0.40104981634073295
0.40240340088782356
0.39651744368155045
0.3889090548471542
0.398986979500929
0.40048790953657704
0.39616734456967867
0.39286967710041576
0.3926647001646718
0.3960457930100522
0.3863282363664772
0.3865905051974431
0.39397689768333993
0.40440711927738704
0.4426637536147164
0.446044914070808
0.4563274202086074
0.44516117590799265
0.44193537762885043
0.43179713636964684
0.4288116266289578
0.4217536532983178
0.4287712494912951
0.421716160241917
0.41302214879606586
0.40994913816777523
0.41566705687007693
0.4031194099507859
0.39718230924001546
0.38524071572287155
0.37200923602838065
0.36972286202635346
0.39188551473875677
0.38246512082884543
0.39014618362678516
0.3901357419391577
0.3815546175149321
0.3678721448352942
0.35802413448991605
0.3817366963120647
0.5866126465754886
0.609711743248668
0.6447323330166205
0.6608228806582905
0.6514783891826984
0.6413727899553627
0.7019890192442653
0.688275517869675
0.6533986951646982
0.6524416455100769
0.6286958136879285
0.5980746841387906
0.6332122067003055
0.6129827633645692
0.5984839945528143
0.5828779949418988
0.5819581381603347
0.5839611282917393
0.5958210476994721
0.5832624014352241
0.564457944189851
0.568425233890576
0.5778234314698208
0.5522646149362621
0.5356742852979575
0.516697550633818
0.5212191541599737
0.5111320717199754
0.4917654951685488
0.4780679597993668
0.47249167695655503
0.4794565571739439
0.47592394594723364
0.46550080695100254
0.4672507493116454
0.46958998150367076
0.454619268539123
0.46643217792918545
0.4609727366485294
0.45518896974506295
0.4505326147632728
0.44263742799446754
0.43887761170914846
0.4411006394442092
0.4345934509124798
0.4335510615615883
0.4311545571643319
0.41892923165259377
0.40686285796312277
0.40351551096575683
0.4289786887539172
0.43262306812863743
0.42957856326230626
0.42175152302928437
0.4166264142414782
0.4068673846528013
0.43066257146331566
0.4477581020730787
0.5086325233535729
0.4951587716854605
0.4876474308507848
0.4835297572185859
0.5082776317029728
0.5012578008670462
0.4947393865194
0.4844008589108713
0.4790865118458091
0.4684374752853943
0.45926336990786615
0.4471731292001614
0.43808933425729274
0.4282258103817719
0.4162096810687883
0.4050518467067321
0.39397671479910834
0.38083552088488615
0.3722044122502516
0.35561838280380503
0.40878849831781905
0.42030360558083196
0.43528191946791533
0.4349046395059214
0.4295543081126412
0.42101471467602386
0.4130850921991649
0.4085790141849389
0.39725194174315753
0.39030537447578917
0.3859978477275184
0.3869980014612672
0.37435528707117655
0.36975848085180674
0.3690614465052491
0.3805570574691597
0.37194583907850554
0.3889497077157554
0.3983104428789157
0.413431125530422
0.4103289022782488
0.3967339806869455
0.39482441063787804
0.3951940955923153
0.3969659459071498
0.40646837834235344
0.40886349417504253
0.40465895887682507
0.39432617609990883
0.3811600206642011
0.37822001918818676
0.37049001781760194
0.3861693022592018
0.3821572092406873
0.37986026572349546
0.3748702467432457
0.3702366576901567
0.363076896426574
0.390714260967533
0.3963775280412808
0.3873505617526181
0.3839683787702883
0.38797063742955323
0.3888298776131565
0.3839134577836451
0.3929196393705277
0.3877110937012043
0.3828745870082612
0.3819549736505284
0.393243904104062
0.4022979109537718
0.39641948874278815
0.38881809668973183
0.38104537549760825
0.37668499153349344
0.37263606356681533
0.36530491616918565
0.3799259935856724
0.3827884226152671
0.3654463924284623
0.36077165011214357
0.3600022465327048
0.3521449432089402
0.36413459012258725
0.3566964051138309
0.37407523331998593
0.36235557379712985
0.3493301756687634
0.3443780202638518
0.35049387595929116
0.3504585991050562
0.35328298488326654
0.3451913431058905
0.3533919614554698
0.3567211070657933
0.35766959941823645
0.3506931994597909
0.34421511378409164
0.3624854627995135
0.3823079297424054
0.384285934760805
0.37683693942074764
0.38992001517640845
0.37635429980666496
0.38375756410618894
0.4020605952414612
0.39262769558135685
0.3824400030398314
0.3808371456798434
0.3964916352741404
0.383885089897416
0.37217901204760073
0.36845193975848645
0.40284822977573753
0.41193049907747037
0.4082211777147939
0.4197768078780229
0.42193560731530694
0.42965449250707083
0.4775363144708516
0.49699800629436225
0.49149814870190767
0.4871054237946285
0.4930264649521551
0.48781028888414385
0.49653812539241926
0.4924996878643894
0.5037497101597903
0.5413390165769483
0.558386229678595
0.5499300704158383
0.546363636814707
0.5609090913279422
0.5615584419473749
0.5721614103797054
0.5870070239240122
0.5829350936437256
0.573439729812031
0.5753368919683146
0.5678128282562921
0.545826197666557
0.5254100406903742
0.5350236092124904
0.5275219228401696
0.5476989283515862
0.5364347191836157
0.5445465249562148
0.5327932017450565
0.5304508301918381
0.5139900566067069
0.5687050525633708
0.53451183452313
0.5391895606286206
0.5292474491551475
0.5271583456440656
0.5173613209552038
0.5054069408869748
0.558592159395048
0.550835576581116
0.5364901782538936
0.5503123083786156
0.5595757149230002
0.5388917352856429
0.5203994684795257
0.5282280778738452
0.5190689294542847
0.5505640059218359
0.549809434070276
0.5441087602081134
0.5423867059075338
0.5443590840569957
0.5483334351957818
0.534166761253226
0.5281548497351384
0.5168580747540571
0.5027967837001959
0.5318827277216105
0.5188911043129238
0.5053988825762863
0.49929896239226595
0.5050633222213899
0.5104159420627193
0.5168148033439535
0.5184708888193853
0.5050086824751436
0.5039366337269192
0.512941159889282
0.5055882198971905
0.4944747756188196
0.4855837202174754
0.47304202591622707
0.4706818812079252
0.5542046039787875
0.5453328465517312
0.5435233575123221
0.5325574034042991
0.5280890174468491
0.5389398019149313
0.5204441017781506
0.5089838087939972
0.4983421081658545
0.4913176718682934
0.4869378381634153
0.46501370686602844
0.4496555849470264
0.43753732887938174
0.41914180538799733
0.4184888192888547
0.4193110464825079
0.41721740030518595
0.4067018717119583
0.437651738018247
0.44139089958837213
0.44129154961777395
0.4540564389307899
0.4609095504357335
0.45298743969032385
0.4463454797124438
0.44232080259012646
0.434297888119403
0.45327661039658845
0.4673282810825463
0.456804832433793
0.4577473444028077
0.46505110551689277
0.4611188836942576
0.46032467771609625
0.4488729150220892
0.4368105639490829
0.4448955236670056
0.4409744148336481
0.4644762423455303
0.45915651074942104
0.4485024742673197
0.4586094403910826
0.44656590893457665
0.4782397725821069
0.46765121739767085
0.4685332732978372
0.4629237537765632
0.4570006285068086
0.43578629789917944
0.462515848049238
0.460907573188578
0.47584274653225084
0.4711396932085186
0.4746297151221958
0.5028704497563246
0.5005225604880156
0.5304852347388714
0.5440220036860951
0.5337347177085168
0.5506108093007656
0.5777100372078537
0.6221593202644355
0.6234336545312616
0.6174741077790287
0.6262259572233837
0.6336383888502849
0.6433785039324074
0.660280039365807
0.6695457508396779
0.6745781972082723
0.6835368974076815
0.7189985475928472
0.7419272227647866
0.7282181354244445
0.7254882686084129
0.7408105351363832
0.7478954969123558
0.7259029614186162
0.7033384641744294
0.6852428595905415
0.658439798191217
0.6278369554632727
0.6379914586444675
0.6217063544555769
0.6187273291373213
0.6309610913417983
0.6294638705316699
0.6245021654936936
0.6241805822441442
0.6074533977981337
0.6019210122411243
0.6010695113667582
0.5824216891262755
0.5743915684743985
0.5597921707262273
0.5433784442457826
0.5245656982282269
0.5170967197833534
0.5294469540845425
0.5366293145070751
0.5218700777565698
0.5124507864882432
0.5444185874533687
0.5398172597781281
0.5276874555082619
0.5099954944005287
0.5064243876576339
0.49739407425351706
0.48186592609255163
0.48744693137165523
0.4762007219879654
0.4621863847031106
0.4470302143671741
0.4543851990552331
0.44621482769414506
0.4743423400017061
0.4754607442872984
0.4650706911239198
0.4704227846150683
0.5018211571425634
0.5088339316323803
0.5474886508014961
0.5498108900299605
0.5541101121706776
0.5716736755870578
0.6001255559022679
0.8458308733378204
0.8454143823851187
0.8735990693576104
0.9176277072606384
0.9327971567420216
0.9433116455461628
0.909503670864294
0.9059676943739872
0.9098271447758448
0.9519823487204274
0.9618407523832543
0.9438521272130214
0.968576975269234
0.9708214770357173
0.940762800104595
0.9128511715256952
0.8740760878452887
0.8837849387134822
0.8599431573768046
0.8506615032784612
0.8927571101871424
0.8947030308880609
0.9015099572531995
0.8814021031636851
0.8848733815091361
0.8902395685441978
0.8702224565053266
0.933063709612089
0.9192734446397971
0.8878967700226691
0.8587612864496216
0.8731354802746488
0.8936258031121742
0.9133668171755904
0.9074120445201915
0.910454041340178
0.9018501812444509
0.8917180254412758
0.8994524521954703
0.8737772770386509
0.859221757250176
0.8249916317323065
0.8139208008942848
0.7957836008304069
0.7817990579139489
0.7945276966343812
0.7942042897319253
0.8289039833225017
0.808982270228037
0.8447692509260346
0.8694285901456035
0.8587551194209174
0.8409868966051376
0.8280592611333423
0.7967693139095322
0.8462857914874229
0.8451225206668925
0.8583280549049717
0.9048760509831879
0.9123849044843887
0.9493574113069324
1.0336890247850088
1.008425523014651
0.9749665570850331
0.958897517293245
0.9632619803437278
1.108743267462033
1.0731187483576021
1.0893245520463448
1.087229941185892
1.072427802529757
1.0643972452062027
1.0383688705486167
1.0006282369380013
0.9798690771567156
0.95130700021695
0.9112136430585965
0.9011269542686967
0.8610464575352184
0.870971710568417
0.8937594455278159
0.884205199418686
0.906047685174494
0.8827585648048871
0.8532758101759665
0.8573275380205404
0.833232713876216
0.8215732343136289
0.8214608604340841
0.8106422275459353
0.8063106398640827
0.7851455941595055
0.8212066231481121
0.8304061500661041
0.8303771393470966
0.8689216293937326
0.9104272272941802
0.9296824253445959
0.9325622521056961
0.9109506626695749
0.870168472478891
0.8387278673018272
0.8331044482088397
0.8135969876224939
0.798340059935173
0.7948871985112321
0.8209666843318584
0.8037547783081541
0.7834865798575716
0.7646661098677453
0.7500471020200491
0.7407580233043314
0.7235610216397362
0.714735234379755
0.727968431924058
0.7031135439294823
0.6850340050773764
0.6932458618575639
0.6751568717248808
0.6897885237445324
0.6833750577627802
0.6867054107797246
0.72408359572403
0.7395061960294566
0.8438271820273524
0.8564109547396843
0.8338101722582782
0.8242523028112583
0.8375199954675968
0.8319828529341972
0.8611269348674689
0.8660464395197927
0.8799002652683791
0.8449073891777806
0.8274140042365107
0.8190272896481883
0.8033824832447461
0.7838551630129788
0.7707226513691946
0.755671033414252
0.7502659595989483
0.7559612481990234
0.7633925876133789
0.7460074027838518
0.7298640168707194
0.7098737299513822
0.6970256063834264
0.685809491641753
0.6725373850959134
0.6823561433033482
0.7079021330673946
0.6887662664197236
0.6938543902468863
0.7021505052292518
0.6955683262843052
0.715170588692569
0.7233726895002428
0.773846068821654
0.8135713496201075
0.7890305389329569
0.7562426432948888
0.7307967402023967
0.7400255444736542
0.7464522912969646
0.7374199847757529
0.7204614144346276
0.7361427419750114
0.7271325461196536
0.707337364253964
0.6918132668072524
0.9509694620353059
0.9630430718899269
0.9299685667549321
0.9306850977010085
0.9134933050080791
0.8961009260789307
0.8813794313590071
0.8734237576905066
0.8638934892840417
0.9243296686208959
0.9561632637194032
0.945008744882303
1.04965097739071
1.0203901932913735
0.9803623223419897
0.984622156460419
0.9850062881418175
0.9703629818459731
0.9596227688569751
0.9475068567957627
0.9219706527389225
0.8968298918289995
0.8956277566983566
0.8623686312199025
0.8721994432756237
0.8777566258987933
0.8879168669060223
0.8987799478413063
0.8874385229954986
0.8797643427815345
0.8697811754399962
0.8590825200514252
0.8384337686191806
0.8142599280035249
0.7903842188604159
0.763213917513243
0.7394129234051541
0.7365977145905002
0.7111264492626072
0.6996174171724208
0.696787601660105
0.6791599158272407
0.6770770646967236
0.6787144172183863
0.654520530274216
0.6470547781117718
0.6522651511037882
0.6542462117392319
0.6468000537578583
0.6548857642037255
0.7102510667606021
0.7166617048491304
0.7290430116456211
0.769825653670934
0.8212666784087244
0.8583190585223869
1.0041534114850734
1.015285310664711
1.0020506456172318
0.9769041709302865
0.989982444435266
1.0206979841184611
1.137076699538571
1.1758569352858161
1.1425814399082577
1.120254194200525
1.128093180329059
1.2032293817341262
1.2651415687531171
1.3033457424136088
1.3416781893840652
1.3672726044280608
1.5553245612546278
1.596372806879297
1.6087747492450615
1.6995765528704145
1.7067496562368134
1.7091246807913265
1.7113300607348034
1.7648064849680318
1.760177450327458
1.770879061018354
1.7115305566599002
1.7342783740413361
1.7011156330383836
1.6860359449642133
1.6220333774667695
1.5561738505048572
1.5193042897545102
1.5164968404863308
1.495318494737307
1.4356528879703565
1.3888205388296166
1.3260476431989299
1.297044240113292
1.383683937248057
1.405563656016053
1.3830233948720492
1.3492360095240457
1.374290580272328
1.3718412531100188
1.4288525921735888
1.4167916927326183
1.4141637146802883
1.3810091636316961
1.3159370805151462
1.33765586047835
1.2956804418727537
1.2959889817389854
1.2841326259004866
1.3002660097647376
1.305961294781542
1.2691069165828603
1.2255992796840847
1.2309136168495074
1.2251340727888285
1.1769102104467692
1.1771309097005713
1.1366215590076734
1.1290057333642682
1.0976481809811063
1.0478161680538842
1.0129721560500353
0.9656170020464613
0.9137872161859997
0.8892309864584282
0.8635716302828261
0.8311736566911957
0.84537553835611
0.8285629999021024
0.803665642766238
0.8376895254257926
0.8264259878953787
0.8309669887599945
0.8066122038485662
0.7861399035736686
0.7878441961755493
0.7872838964487244
0.7853350467023871
0.8249539719379309
0.8367429739423642
0.9419756186607666
0.9275487887564261
0.9048667324166814
0.8788048229583468
0.8624616213184648
0.8351429340814317
0.8247755816470436
0.8465773258151118
0.8582503739711751
0.8326610615446626
0.8367567000057582
0.8405597928624898
0.8169483790865976
0.8371663520089836
0.8266544697226275
0.8233220075995826
0.7952275784853268
0.8241398943078034
0.7974156161429603
0.7811716435613203
0.7632308118783689
0.7794286110299139
0.7944694245277774
0.7934358942043646
0.7839047589040525
0.7579115618394772
0.7416321645652288
0.7315155813819981
0.7164073255689981
0.7259496594569269
0.7276675409242893
0.7214055737154116
0.7748766041643108
0.7745282752954313
0.7642048270600432
0.7717616251271832
0.7680643661895274
0.7596311971759897
0.7496575402348473
0.733967715932358
0.7365414505086181
0.7932170611865741
0.7715586996732472
0.7728759354108723
0.7890990828815243
0.7884491483899867
0.7935599235049876
0.8304485003974884
0.8554164646548106
0.857886717179467
0.8580376659523621
0.8324635469557649
0.8094304364589247
0.81304254814043
0.7913966518446848
0.7691540338557787
0.7563573171517944
0.7623317944980947
0.7757366663196595
0.7746126187253982
0.7642831459592984
0.7461200641050627
0.7278257738118441
0.7094096471109983
0.8215946723173554
0.8079093385804014
0.7937729572532298
0.8056463174494278
0.8259572947744687
0.8019603451477211
0.7746774633514552
0.762200501683494
0.7406147515632444
0.7484279835944411
0.7306831276234096
0.7299200470788803
0.730640043716103
0.7020228977363813
0.6861641193266398
0.6742952536604513
0.6532741641132764
0.641611723819471
0.6293537435466517
0.6465427618647478
0.650361136017266
0.6753353405874613
0.664954244831214
0.6588860844861272
0.6575370784514039
0.6562844299905893
0.665121256419833
0.6511840238184166
0.6275280221171011
0.6184188776801653
0.6235318149887251
0.6104223996323876
0.6053922282300744
0.6128642119279263
0.6148024825045031
0.6080308766113243
0.6138858139962294
0.6164653987107843
0.6002892988028712
0.6174114917455232
0.6318820994779859
0.618890520943844
0.6039697694478551
0.6122576430587229
0.6020963828402426
0.6076609269230824
0.6078280035714335
0.6022688604591883
0.618535370426389
0.6100685582530755
0.6193493755207129
0.624395848697805
0.6112247166479615
0.5954229511731073
0.6350355975178853
0.616104483409465
0.6442398774516462
0.6396513147765288
0.6189619351496337
0.6018932254960887
0.5917579951035108
0.5773467097389741
0.6018219447576187
0.7552632344177889
0.7406015748165183
0.7341300337581957
0.7224064599183245
0.7222345699241585
0.7113606720724329
0.6862634812101163
0.6586732325522506
0.6459108587985184
0.6504886545986243
0.6297394649844368
0.603329503199834
0.5866631101141316
0.6069014593916935
0.595694212292287
0.5738589114142665
0.5657261320275332
0.5538885511684236
0.5478965117992505
0.5323324752421613
0.5478801555820069
0.5408887158975777
0.527968093333465
0.5138275152382173
0.5114112641497732
0.5377390309962179
0.539329100210774
0.5608055930528615
0.5464623364062284
0.5345721695200691
0.5478170145543501
0.5394015135147536
0.5215871196922712
0.5129023254285378
0.501980730755071
0.49826782141542303
0.4919629770286071
0.4853941929551353
0.4735803220297686
0.46689601331335645
0.4528320123624024
0.45834401147937376
0.4691765820879899
0.467806826224562
0.46439205292280766
0.4747926205711785
0.46016457624466567
0.4708671065129038
0.5029480274762677
0.5141660255136771
0.5160113094055572
0.5198676444480174
0.5041628127017305
0.5252940403658923
0.5113444660540428
0.49910557562161123
0.4934551773629248
0.48606552183700164
0.5092036988486445
0.5164034346451698
0.5030889035990861
0.5078682676277227
0.49873481994002816
0.5052537613728832
0.6663070641319632
0.690142273836823
0.672274968562764
0.6828267565225666
0.6740534167709546
0.6787638870016007
0.6759950379300579
0.659852535220768
0.6741487827049989
0.674566726797499
0.6570976748833919
0.6444478409631496
0.6319872808943534
0.607559617973328
0.5991625024038044
0.5870794665178184
0.5758595046236886
0.5725838257219966
0.555256409598997
0.5448809517704972
0.5309608837868904
0.520892249230684
0.5008285171427779
0.4886264802040082
0.5280103030465789
0.5224381385432518
0.5308354143615911
0.5186328847643348
0.5130162501383106
0.5149436608427173
0.5067333993539517
0.4998238708286694
0.5041221657694787
0.4895420110716588
0.46957472456654037
0.45817652995464453
0.4490210635293129
0.4448052732772192
0.45089061090027505
0.47939842440739816
0.479441394092584
0.47448129451454235
0.45916120204921773
0.44350683047427353
0.43254205686896824
0.4252176242354704
0.4369877939329368
0.44220295150915545
0.45490274068707304
0.45526683063799644
0.46274777130671085
0.47112293049908854
0.4831855783205823
0.4943866084405407
0.49407327926621625
0.49521090217577207
0.5198386948775026
0.5205645023862522
0.523381323644377
0.5424255148126359
0.5551094066117332
0.6126015918537523
0.6188443352927698
0.6289268827718578
0.6411463911452966
0.665350220349204
0.7792537760385467
0.7635927920357933
0.7347647354618081
0.7301386829288218
0.736557348433906
0.7346603949743413
0.7186132239047455
0.7115694221972637
0.6893144634688877
0.6900777160782529
0.6793578792155207
0.6622608878429836
0.6363851101399132
0.6280718879870621
0.6032096102737005
0.5808374952541505
0.5922062455931396
0.5827629423364868
0.5861370178838806
0.5685558023207463
0.5650875307264073
0.600438421388807
0.5761213912896064
0.5621127204832058
0.540533240448691
0.5326380089880701
0.5345924369174936
0.5185501199948154
0.5057965399951857
0.4939539299955296
0.4843857921387061
0.47050109270022705
0.4726081575073537
0.4545647176853998
0.4613815235650139
0.4505685575960842
0.45338508919636383
0.441000439968052
0.4752146942560484
0.484842216094902
0.46949634351669467
0.461675176122645
0.4715555206853131
0.4657301263506479
0.4753208316113158
0.4713693436390788
0.4862715333791446
0.48796642385206296
0.47382596500548696
0.4664098246479522
0.4723805514588128
0.45578194064032607
0.4503689448803027
0.459628305960281
0.4553691412488325
0.44212848830248724
0.4555478819951669
0.48943731899551207
0.48447751049583276
0.4855862597461304
0.4780443840499782
0.49818407090355105
0.5025994944104402
0.5038423876668372
0.5471393599763488
0.5394865485494665
0.6416660807959332
0.7144042178819381
0.754089630890371
0.7773689429696301
0.7718425899003708
0.7559966906217729
0.7448540698630747
0.7473644934442837
0.7368384581982635
0.7484928540412449
0.7807433644668702
0.7728331241478079
0.760487900994393
0.7740244794947934
0.8644513023880226
0.8991333522174495
0.8677666842019175
0.8622119210446376
0.8541967838271635
0.830325584982366
0.8595880431979112
0.8403317543980604
0.8260223433696277
0.8220207474146541
0.7897335511707501
0.8011811546585536
0.7789539293257999
0.8054572200882426
0.7729245615105108
0.7627156642597602
0.7339502596697773
0.7529538125505075
0.7484571116540426
0.7349958893930397
0.738924754436394
0.7432872719766517
0.7251953239783193
0.7591099436941536
0.7570306620017141
0.745099900430163
0.7225927646851513
0.7295504243504977
0.7281539654683193
0.7225715393634395
0.689530715123194
0.6845642354715373
0.669238218652142
0.6564354887484175
0.6531186681235306
0.6607530489718499
0.6428421169024322
0.6526391085522586
0.6538791722270971
0.6693163742108758
0.6765080617672418
0.6567574859267244
0.6298462369319583
0.6105715057225328
0.6248163981709232
0.6287580840158572
0.6288467923004387
0.6110720214218361
0.6245668770345619
0.617097814389236
0.6115908276471477
0.5936200542437798
0.6033614789406528
0.5966928018734635
0.5897861731682161
0.5783728750847723
0.5592033840072885
0.552117428006768
0.5512518974348559
0.5554481904752233
0.5329161768698504
0.5241364499505753
0.5116981320969629
0.5001482655186082
0.49299481798156497
0.4942094738400245
0.4824802257085941
0.4773030667294088
0.47820999053445096
0.4611949912105615
0.46468106326694986
0.45863241589073905
0.45873010046997204
0.44596366472211696
0.43125197438482304
0.5033054047859069
0.5002121615869136
0.48591129290213386
0.47406048626626723
0.4723418801043912
0.46788888866836326
0.45946825376348027
0.4830776642089459
0.4664292596225926
0.45954145536383606
0.4552884942664191
0.46205360181881755
0.4490497731174735
0.4505462178947967
0.4555072023308826
0.46582811645010513
0.47112610813224043
0.4667599575513662
0.46699138915483995
0.45363486135806547
0.4383752284039178
0.44277699780363794
0.46186435510337814
0.4531597583102797
0.4436483470024026
0.4476734650736595
0.47783964613982677
0.4651368142726961
0.4669127561103606
0.4528475592453348
0.435501305013525
0.4693940689411304
0.47086592115962095
0.4700897839339335
0.5022262279386525
0.5063529259430343
0.5037562883756749
0.5056308392059836
0.49951435069127037
0.5109776113561797
0.5080506391164528
0.5003327363224204
0.483880398013676
0.4964603695841277
0.5024274860424042
0.49011123703937515
0.49438900582227696
0.4847897911206857
0.48659052032635086
0.46897691173161143
0.4569071323222104
0.4699851942991954
0.46070053756353857
0.44493621345185713
0.4481550553481532
0.44971540853757075
0.48830716507060135
0.5205709389941299
0.503387300494549
0.48600249331636686
0.4720023152223406
0.4697164355636018
0.45973669016620156
0.4497554980114729
0.43763010529636753
0.4427993834894842
0.4440279989545209
0.43588314188634075
0.4290343460373164
0.42053189274893654
0.41763675755258384
0.417805560584542
0.4136765919713604
0.4141282639734062
0.3995476736895915
0.3881514112831922
0.37614059619153556
0.36998769646356894
0.36284571814474254
0.3597853097058324
0.35694350186970153
0.402161823164723
0.41415026436724284
0.4245681026267257
0.4085275238676738
0.4164898435914114
0.42531199762059624
0.42850399779055354
0.44075371223408527
0.4385570185030792
0.43723151718143083
0.4352864088113287
0.44490880818194806
0.4367010361689516
0.444079533585455
0.4816452811864941
0.552956332530316
0.5477451659210074
0.5407633683552211
0.5185659849012768
0.5122398431226142
0.4992227114709987
0.5042782320802132
0.4889726440744836
0.4804745980691634
0.4947264124927946
0.5122459544575949
0.49851410056776674
0.49004880767006903
0.48861674997934973
0.4865726964093962
0.46753178952301094
0.4755652331285103
0.47231057361933093
0.47857410407509293
0.47653309664115767
0.46749501830964624
0.47910251700181455
0.4684523372159708
0.45784859884340146
0.45657369892601546
0.47538986328844285
0.467862015910697
0.45730044334564723
0.46320755453524376
0.46512130063986934
0.4611840648798787
0.47752806024560174
0.49413319879948736
0.49240939888523816
0.4858087275362925
0.5068223898551286
0.48704936200833376
0.48297440757916704
0.474904807037798
0.46669732082081244
0.4576475121907544
0.4406726898914147
0.42562464061345656
0.4195085948553525
0.40525798093711324
0.3941681251558909
0.4110132590733272
0.4195123119966608
0.41026143256832803
0.40381418738487607
0.407113174000242
0.408747947285939
0.40169452247980064
0.4115734851598148
0.40931823621982794
0.4265097907755547
0.4174733771487294
0.44836813592382024
0.45419898335783315
0.4417561988322737
0.4694878989156828
0.4545244775645627
0.4570584434528084
0.5208399832061793
0.5207799844057379
0.5092956998053283
0.5057745783906621
0.4982192513627575
0.4962035905511319
0.4814747626546224
0.4899408510364352
0.48780221881954705
0.47367348890386507
0.4662682396964462
0.4736776511467001
0.47055781892193577
0.47194654614179743
0.4653789357030975
0.46285186886716195
0.4626481639480788
0.4474590093803589
0.4269262229960475
0.45643149278204403
0.44168638615475514
0.4358516442865583
0.4568622411232327
0.45780065247157314
0.45224346300931784
0.4542260727943666
0.4410670675947692
0.42384799133799994
0.40928742052814276
0.40362403334756103
0.40979374525130685
0.4098084777333564
0.41982215789525934
0.42197771804559814
0.41469359532805544
0.4207869099474801
0.4235878449512316
0.4090458560261436
0.41197115202427614
0.4139732125939705
0.47226084026582976
0.4928136373896992
0.48904123471900646
0.48125257509622016
0.47044881973220454
0.45470247546561854
0.4515094415037887
0.4585444813963752
0.45936273272520545
0.45726539467340527
0.45674643791101915
0.45626454948880346
0.4701027959538891
0.46938116767146854
0.4815682271235063
0.5221704966146844
0.5248726039993497
0.534524560856539
0.5584870922239291
0.5828808713507913
0.566960809111449
0.589320751317774
0.6086549833665043
0.5980367702688966
0.621748429535404
0.6337663988543036
0.6256402275075675
0.6516659255427414
0.6672612165754028
0.7117425582485882
0.7744752326594033
0.8248698588980171
0.8502362975481587
0.8387908477232903
0.8131629300287694
0.7936512921695715
0.7919619141574593
0.8218217774319264
0.817405936186789
0.8090197978877327
0.8062326694671803
0.7850731930766672
0.776139393571191
0.7864151511732487
0.773814068946588
0.7706844925932603
0.7499213145508846
0.7427840777972499
0.7290137865260178
0.7262270874884452
0.7093537240964133
0.7093998866609553
0.7101570376137442
0.7065743920699052
0.682533364064912
0.6987809809174184
0.7002966251376029
0.6817040090563457
0.6837251512666065
0.6756019261761346
0.7052017885921249
0.75411594654983
0.7331076646534135
0.7371714028924553
0.7188020169715656
0.7288875871878824
0.7539670452458909
0.7443979705854701
0.7497981155436507
0.7769553930048184
0.7928871506473314
0.7862523541725219
0.7522343288744848
0.7499318768120216
0.7213653141825915
0.6991249345981208
0.6906160106982548
0.6755720099340937
0.6680311520816584
0.6631717840758256
0.648659513784695
0.6694695485143597
0.6495074379061911
0.628828335198606
0.6203405969701343
0.6446019829008388
0.6564161269793501
0.6423864036236823
0.6236445176505621
0.6340984806755218
0.6245200177701273
0.6227685879294038
0.6161422602201608
0.6214178130615781
0.6141736835571796
0.6488755633030954
0.6296701659243028
0.6418365826439952
0.6209911124551385
0.6152060329940573
0.6212627449230531
0.6218868345714064
0.6053234892448774
0.5906575257273864
0.5734677024611445
0.5553628665710628
0.542122661815987
0.5512567574005592
0.5325955604433764
0.5474101632688494
0.5390237230353602
0.5333791713899774
0.5367092305764077
0.5169442855352359
0.5100196937112905
0.49858971558905535
0.49654759304698015
0.490365622115053
0.4974823633925492
0.4826621945787956
0.4724720378231674
0.48229546369294135
0.4949886448577313
0.5003465987964648
0.5181789845967174
0.5083090571255232
0.49414412447370004
0.4738481155827215
0.46785896446966974
0.4508690384361219
0.4336641071192561
0.4741166708964521
0.4909654801181339
0.48732508868112445
0.5003732966324729
0.49177520401586783
0.4859341180147344
0.49479596672796766
0.486596254818827
0.484696522331768
0.48436105645092725
0.48047812384728955
0.47544397214391176
0.5571979741336321
0.5602552616955154
0.5595227430029787
0.5609854042170516
0.5423435896301194
0.5293190475136823
0.5479391155484195
0.5423720358663894
0.5407740333045045
0.5350044594970399
0.5289327123901084
0.5104375186479578
0.504691981601675
0.5007854114872698
0.48787216780960774
0.48445272725177874
0.47413467530522313
0.49241076992627836
0.48295285778868696
0.5555990822323522
0.5423420049300415
0.5364604331493242
0.533856116495801
0.5378663938889581
0.5180187943254612
0.509588880445071
0.5146182461275658
0.5057169428327397
0.5160228754875441
0.5105926700955765
0.5069789079458923
0.5057661288069001
0.49749711960640725
0.48839018249166394
0.47064802659940186
0.4641731675565876
0.477446512731117
0.47120033325032296
0.4632574523038713
0.4623104914250235
0.46214545632323617
0.4619922094430053
0.4525641944827905
0.4416667520197343
0.43797626973261045
0.44954939332313837
0.43886729380005735
0.4546624871000535
0.4493294523071925
0.44366306285667856
0.448401415509773
0.46137274297336056
0.49198897561812055
0.49827547735968325
0.501970086119706
0.529686508539727
0.513280329358318
0.5266174486898667
0.520430488069162
0.5132568817785077
0.5144528187943287
0.5062776174518768
0.5229720733481712
0.6199026395375874
0.6091953081420453
0.6149670718461852
0.6031837095714577
0.582242016030639
0.5649390148855933
0.5381576566794793
0.5275749669166597
0.5163196121368981
0.500153925555691
0.5244286451588559
0.516255170504652
0.5229512297543196
0.5377404276290109
0.5400446827983673
0.5621843483127694
0.559171180576143
0.565658953392133
0.5666833138641236
0.5619202200166862
0.5674973471583512
0.5791046795041833
0.5648829166824558
0.6045341369194234
0.5999245557108931
0.5820728017315435
0.5876390301792904
0.5770933851664838
0.5701581433688778
0.583003990271101
0.5742179909660223
0.5589167058970207
0.5811369411900907
0.5774843025336555
0.5812354237812514
0.6104328935111619
0.5996876868317933
0.5847099949152367
0.5843735667070057
0.595489740513648
0.5758119019055303
0.6253967660551353
0.6100112827654828
0.6435819054250913
0.647611769323299
0.6784966429430632
0.659318311304273
0.6465098604968249
0.6539020133184802
0.6629090123671603
0.6448440829123632
0.640926648418623
0.6237176021030073
0.6327377733813639
0.6196850752826951
0.626136141333931
0.6271264169529357
0.6366173871705832
0.6518590023726845
0.64029764506035
0.6417049561274679
0.6665831735469344
0.6489700897221535
0.6740436547419997
0.7051833936889996
0.6876702941397854
0.6778367017012291
0.6772769372939986
0.6781857274872846
0.6554581755239071
0.6357825915579138
0.6217981207323484
0.6166696835371807
0.6261932775702392
0.6071794720295077
0.5980952240274
0.5810884223111571
0.5645821064317886
0.5506833845438038
0.5327774285049608
0.5218647550403207
0.5031601296802979
0.5200772632745625
0.5065003158978082
0.4931788647622505
0.48295180299351836
0.4727409599225528
0.47183089135665623
0.4702715419740379
0.46525214611874965
0.4520198499674105
0.4418755749697382
0.4410273196147569
0.45523965392798854
0.47057967864741806
0.45982398731545965
0.496265131078641
0.5043890502873094
0.49978983240964425
0.48551913009466974
0.4829820493736218
0.504197617275506
0.49961207318439854
0.47963978224265597
0.4582369406538948
0.4362200163214739
0.4457757294413686
0.4510774630526994
0.45814335854893523
0.4711331186525828
0.4774807530345413
0.4798035563892168
0.48267473093284435
0.48819796443764113
0.4818981098349527
0.4710482448467417
0.47025908450054593
0.4730977213219356
0.4657335983703689
0.4753240556296284
0.46708662308465493
0.4608661500071795
0.4650899964352381
0.4690121395470067
0.4655112724365061
0.47154618154818423
0.47143574000902816
0.5091903300083833
0.5442481635792131
0.5368018661806977
0.5220303043106477
0.50902813971703
0.508383272594385
0.5199273245519288
0.5556468013696482
0.5473863155575305
0.5375730073034212
0.541317792496034
0.5605093787463172
0.5611872802644374
0.5489596173884063
0.5668910732892345
0.6313988537685749
0.6212989356422479
0.6012061545249444
0.5839771434874483
0.5658359189526307
0.5497047818845857
0.546154440321401
0.5657148374413009
0.5631637776240649
0.5472235077937745
0.5524218286656478
0.5486774123323872
0.5552004543086453
0.5455432790008851
0.527290187643679
0.5374837456691303
0.5255206209784782
0.5201262909085868
0.5194029844151161
0.5215884855283219
0.5229035937048706
0.5262676227259513
0.5193913639598119
0.5208634093912539
0.5215160230061641
0.5185505927914381
0.5193684075920497
0.5308420927640461
0.5250676575666142
0.5232771105975703
0.5230430312691724
0.51496852903566
0.5067564912473985
0.5434167418725843
0.5396012603102567
0.5446297417166669
0.5228704744511906
0.5090940119903912
0.4870158682767918
0.5015147348284497
0.5121208251978461
0.4983979091122854
0.49636948703283634
0.4766288093876337
0.47329818014565983
0.4573483101352555
0.4568234308398801
0.45919318577988877
0.46925081536703966
0.4957328999836797
0.4931805499848453
0.4958105107002133
0.4911097599359123
0.4967447770833472
0.5041201501488225
0.5109687108524779
0.495899517220158
0.48119240884728953
0.46753580821534024
0.4648546790571016
0.46165077341016586
0.44653286102372547
0.43106622809345935
0.4138472118010692
0.4042866966724215
0.39612336119581987
0.39425740682468996
0.411810449194355
0.40239541710904403
0.42222431588696946
0.410636864752186
0.42916280298417286
0.4149368884853034
0.41815568216492466
0.4204302762960014
0.4182566851320013
0.42909549333685837
0.41844581524136854
0.4149853998669849
0.40891501416220016
0.40184965600775724
0.39243182343577454
0.3815438360475048
0.3671478477583973
0.3744944300613691
0.3613162564855569
0.3576508095937313
0.3542471803370361
0.3460866674558191
0.3492233340661178
0.34070738163282366
0.34208542580190787
0.3462221811017715
0.3429205967373593
0.34199769697040516
0.346855004329662
0.34636536116325756
0.36948212108016787
0.36166196957444174
0.4236861146048388
0.45056567784735035
0.529096700858254
0.5170183650826644
0.5136599104339026
0.5091127739743381
0.5041761472618852
0.502449279600322
0.5701314739145847
0.6308363686349713
0.6229194851610448
0.6727109505066845
0.7175173111847787
0.7041232175287231
0.7188287019909572
0.726769508991603
0.7105716869207742
0.715530852140719
0.6958500769878109
0.6932893572029669
0.6830544031170405
0.6814076600372522
0.6620213986060196
0.6433055844198752
0.6344980426755986
0.6413196110559133
0.6290824959804908
0.6270051748390273
0.6386476623505253
0.6230299721826308
0.6178135455981575
0.6086840066268607
0.6159208632963706
0.5990693730609158
0.6212787035565643
0.6090445104453813
0.5969699025564255
0.5893291952309667
0.6043771098573265
0.6304930305818031
0.6254578141116743
0.6250679702465546
0.6389916866575149
0.6312065661819782
0.6425489543118369
0.6273668861467057
0.613269251421941
0.6030357334632309
0.6142474667872858
0.5896583620167656
0.5832541933012824
0.6287360366369056
0.6323977483056981
0.7036550519981484
0.7191082625697093
0.7256005295290154
0.7044862059912286
0.6863086198489976
0.6844294327169267
0.6933987589514315
0.6988702761691862
0.6960938278713875
0.6899442687377174
0.6735196781135947
0.6604111296769094
0.6896674775571301
0.6725483720173349
0.6702234883018109
0.6559218105659672
0.6733559669541123
0.6731162550288187
0.9407508082410458
0.9171257505095426
0.875188196901718
0.8391033256944522
0.82988165957342
0.8006043981753186
0.7591326554485104
0.7463374657736167
0.7173133610755009
0.701076692427251
0.6752855001110188
0.652765107245946
0.6289961710140928
0.6447821587988006
0.6715834331703151
0.6543274736581497
0.6440183683968532
0.6451599135113634
0.7176484911176946
0.7742450274664308
0.742513239790257
0.7316194369480957
0.7172180485946601
0.6995596165521842
0.7124482153698856
0.8622733428434654
0.8521109612117892
0.8626744639823757
0.8439120022693489
0.8407754306786815
0.8135771856302039
0.9061788152280464
0.8964517569974717
0.8674194886405096
0.8240323823090447
0.8108872121441131
0.8058238398481049
0.7868364227160974
0.7442052496649475
0.7317620175460228
0.7344933020070215
0.7298866375779486
0.718466163465238
0.6928614375034352
0.7119427633960471
0.6946611374391864
0.6964710561935302
0.6752945521797066
0.6627735127382989
0.6854325475427059
0.6800445084325126
0.6550413292587616
0.6611098057402788
0.6553162481874015
0.634936516174016
0.6381553364473006
0.6304299552724935
0.613256387038744
0.6280237879645479
0.616022088824223
0.6234490824796356
0.6174884337310901
0.6026678313217263
0.6039058433701747
0.6079125688437339
0.5852045282120392
0.5848327761968933
0.6080590064685436
0.6024833631493619
0.7430202657815503
0.7228045325114392
0.7040327801891936
0.6794590101756797
0.6559262237345592
0.6305029220392333
0.6183241418935734
0.6413009889011752
0.7083509182653768
0.7113258526749927
0.6919454346267787
0.672520760724866
0.6530549921016612
0.6964082069515424
0.678093335026432
0.65108666823883
0.6595804776503423
0.6524675863896032
0.6537199016474883
0.6391684801012393
0.6185135886654366
0.6014769037607628
0.5799428392064224
0.567804064977392
0.5765323460504354
0.5867800356182613
0.5741528902169571
0.5945705409157459
0.6778155022789066
0.6694001092589844
0.6580143871690568
0.6738705023712667
0.6907368950590331
0.6742556882691023
0.6853802819641669
0.669281690395298
0.6771901410813481
0.7052479881469661
0.6905874175650399
0.6948311734532514
0.6694860896351623
0.6609513689469367
0.643026271165013
0.6292386803675117
0.6185787746269754
0.60010886215362
0.5793868005712183
0.5822877433875596
0.5978386188598765
0.5808501460841711
0.5986465642210159
0.5923146667766576
0.5942921905783247
0.6382713198227302
0.681966225549678
0.7053972094389865
0.704297408764773
0.7068475938530037
0.7106441942920746
0.7005981804140692
0.6941268818130641
0.7509749616835592
0.7623338929918766
0.7535957577781712
0.769767489365445
0.7612126686964851
0.8018403352181646
0.8552803112740097
0.8613317176115803
0.8476651663536104
0.8271176544712099
0.8094663934375524
0.7880759367634413
0.7646419412803385
0.7400246597603145
0.7250228983488636
0.7053784056096593
0.6814228052089696
0.6713211762654716
0.6569410922465092
0.6528738713717586
0.6376685948452042
0.6278351237848324
0.6222754720859162
0.6249700812226368
0.6260436468495912
0.6391833863603349
0.6435274301917392
0.6318468994637575
0.6117149780734892
0.6158781939253829
0.5926011800735698
0.5867010957826003
0.5905081603695574
0.6061861489145892
0.6078871382778329
0.6151809141151301
0.7033822773926209
0.6988549718645766
0.7496510453028209
0.7625331134954765
0.7637807482457996
0.7827964090853854
0.8054538084364294
0.7929213935481128
0.8277127225803904
0.8543046709675056
0.8361400516126839
0.8114157622117776
0.7991717791966506
0.8670880806826042
0.8430103606338468
0.8349381920171434
0.8274426068730615
0.8826252778106995
0.8760091865385066
0.8498656732143274
0.8541609822704471
0.8410066263939867
0.8445061530801306
0.809898570717264
0.7741915299517453
0.7560349920980495
0.7498896355196175
0.7627546615539306
0.8068436143000787
0.8063547847072157
0.7730437286567
0.7499691766097926
0.7449713782805222
0.7196162798319135
0.7025008312724909
0.7237507718958843
0.7384828596176068
0.7200197982163495
0.7028755269151821
0.6990987035640975
0.6777345104523766
0.6928963311343498
0.6841180217676105
0.6616810202127811
0.6487038044832965
0.6502249613059182
0.6394946069269241
0.6202449921464294
0.6080846355645413
0.5910785901670739
0.5802872622979975
0.5902667435624263
0.5773905475936818
0.574719794194133
0.5700969517516948
0.5958043123408595
0.5853897186022264
0.5764333101306384
0.5645452165498788
0.5492205582248876
0.5521333754945387
0.5826952772449291
0.5817884717274342
0.6523750094611884
0.6457767944996752
0.631078452035413
0.6181442768900262
0.5968482571121673
0.5849305244612982
0.5852926298569194
0.586343156295711
0.6001757879888745
0.5965918031325261
0.5868352457659173
0.5713470139254945
0.561250798645102
0.5504471701704515
0.5389866580154193
0.5333447538714609
0.5631058428806425
0.5664554255320257
0.555280037994024
0.5470457495658793
0.6408281960254593
0.7114833248807838
0.7028059445321567
0.719748377065574
0.708337778703747
0.7170279373677655
0.7143830846986393
0.689070007220165
0.6812792924187245
0.6647593429602444
0.6751336756059414
0.670481270205517
0.6690183223336942
0.6683741564527158
0.665633145277522
0.6866593491862706
0.6947551099586802
0.6744154592473462
0.6569572121582501
0.6521745541469467
0.6527335145650216
0.635395406381806
0.6350100202116767
0.6203664473394142
0.6124831296723136
0.6044486204100055
0.5912737189521481
0.577611310455566
0.5649247882801683
0.5574301605458707
0.5347565776497373
0.5229882506747559
0.5270605184837017
0.5329847671634372
0.5363429980803345
0.5373184982174537
0.5575100340590642
0.5812593173405596
0.5790265089590908
0.584810329747727
0.580895306194318
0.5694027843232954
0.5723025854430599
0.5749952579114127
0.5717813109177404
0.5573683601379017
0.58684204869948
0.583496188078089
0.5839607460725115
0.5972492642101889
0.6303028881951755
0.6467098247526629
0.6576591229846159
0.6442548999142862
0.6475224070632656
0.6341279494158895
0.6381188101718972
0.6196817523024756
0.6232759128522989
0.689470490505706
0.7159368840410123
0.8197985351809397
0.8376700683823012
0.8364079206407082
0.8930930691663717
0.9007292785116309
0.9221057586179426
0.9512410615738037
0.9475809857471033
0.940610915336596
0.9491387070982674
1.0156287994483908
0.9730838852020772
0.9557207505447858
0.9131692683630153
0.9086571777656566
0.909467379353824
0.8966482808285512
0.8668876893407973
0.8506814258164547
0.8663470382581365
0.849465106953984
0.8316461707429853
0.7929571585470577
0.7648887900794107
0.7773967336451669
0.7682969669562264
0.7534186121736389
0.7538887113040931
0.7586109462109436
0.7637101643387337
0.814873724028824
0.8002398865981937
0.7802227518411796
0.7752068409953811
0.7619777809242826
0.7839793680011196
0.7886951274296106
0.7823597611846386
0.7964769211000219
0.7817285695928772
0.7958908146219577
0.8011843278632468
0.812528304444443
0.830204854126983
0.8466187931179123
0.866146022180919
0.9142784491679962
0.9232585599417107
0.9844543770887314
0.9805647787252506
0.9433815802448756
0.9345686102273846
0.9078137094968574
0.8851127302470816
0.8661761066580046
0.8600206704681467
0.8693049082918501
0.8764974148424322
0.8503190280679725
0.8760105260631175
0.8827240599157519
0.9282437699217698
0.9276549292130721
0.9456795771264241
1.0102738930459647
0.9909686149712531
0.9894708567590211
0.9980800812762338
1.003931504042217
0.9972221108963446
1.0131348172608914
0.9829109017422565
0.9798458373320952
1.2605711346655168
1.2869589107608372
1.2900332742779201
1.316459468972354
1.3038552211886145
1.2742941339608562
1.2439874101065094
1.21227402367033
1.171397307693878
1.1255832142871725
1.0873272704095176
1.041089608237409
1.0174403505061655
1.0004803254700103
0.9868745879364383
0.9385264030838358
0.9057745171492764
0.8832191944957568
0.8587035377460598
0.8245104279070551
0.7863311116279802
0.7544503179402671
0.7391324380873913
0.7320515496525777
0.7361907246773934
0.7121771014861509
0.6913073085228545
0.710499643628365
0.7261782405120532
0.7328797947611922
0.718388380849678
0.7470749250747009
0.7551410018550794
0.7269166445797166
0.7235654556811654
0.7790250659896536
0.7498089898475359
0.7462512048584259
0.7179475473685385
0.6966655796993573
0.7526180382922606
0.7481453212713847
0.737563512609143
0.729880404565633
0.7127460899538022
0.6939785120999588
0.6886943326642477
0.7537875946168017
0.7428027664298869
0.7361739973991804
0.7100187118706673
0.6978745181656202
0.6958834811537903
0.6918918039285196
0.7003281036479112
0.6874475248159178
0.7097727016147808
0.7697889372137253
0.7590897274127447
0.7462976040261206
0.7508477751671121
1.040072934083747
1.0307820102206224
1.065011866633435
1.0467967333024755
1.0391683952094415
0.9992277955516246
0.9771400958693655
0.9737729461644108
1.0292177357240957
1.0214164688866603
1.0398867211090412
1.0041805267441097
1.0224533462623875
1.0187066786722168
1.0316562016242015
1.0186807586510442
0.9952035616045409
0.9834033072042165
0.9603030709753436
0.9345671373342477
0.9106694846675157
0.8963359500484075
0.9165976679020927
0.8961264059090863
0.9021173769155799
0.9198232785644674
0.9062644729527201
0.9072455820275259
0.9110137547398451
0.8945127722584276
0.8849047170971112
0.8559829515901745
0.8791270264765905
0.8727608102996911
0.8511350381354275
0.8581968211257538
0.8640399053310575
0.8530370549502677
0.8513915510252484
0.8498635830948734
0.8334447557309537
0.8210558446073144
0.8116947128496494
0.7937165190746747
0.8263081962836265
0.8315718965490816
0.8278881896527187
0.8494676046775241
0.8380770614862723
0.8160715570943953
0.8413521601590814
0.8433984344334327
0.8531556891167587
0.8365017113227042
0.8488944462282253
0.8346877000690662
0.8079242929212758
0.8166439862840418
0.7954551301208961
0.7879226208265467
0.7923567193389364
0.8843312393861551
0.9018790080014295
0.8746019360013276
0.8664160834298041
0.8652435060419611
0.9120118270389641
0.9518681251076094
0.9460204018856372
0.9177332303223772
0.9257522852993504
0.9217699792065395
0.9587864092632156
0.9274445228872717
0.9147699141096094
0.9515720631017801
0.9693169157373669
0.9436514217561263
0.9176763202021172
0.9149851544733947
0.9017719291538663
0.9066453627857334
0.9097421225867527
1.0297605424019844
1.2126347893732716
1.329589447275181
1.4039044867555255
1.3921970234158452
1.347040093171856
1.3101086579452947
1.3493866109492028
1.3644304244528311
1.3169711084204858
1.315758886390451
1.3210618230768474
1.3331288357142157
1.3129053474489145
1.265554965488278
1.2194438965248295
1.2216264753444845
1.1729388699627354
1.1548718078225402
1.1380952501209303
1.1275170179694354
1.1041229452573327
1.072399877738952
1.0572284579004554
1.0509978537647084
1.0387837213529434
1.0017277412563048
0.9916043311665687
0.9922040217975281
1.0391894488119902
1.0592473453254194
1.0521582492307466
1.0770040885714074
1.0729323679591642
1.040580055962081
1.0098243376790752
0.9784083135591413
0.9492362911620598
0.917147984650484
0.8973517000325923
0.8946837214588357
0.8872063127832045
0.8866915761558329
0.9562136064304162
1.3193412059711007
1.3551025484017365
1.3147380806587552
1.3008282177545583
1.2621976307720897
1.269897800002655
1.2320479571453227
1.2504731030635141
1.2197250242732631
1.1826018082537446
1.170987393378477
1.184488293851443
1.1634534157191965
1.1332067431678254
1.108691975798695
1.0859282632416454
1.0833619587243848
1.0709789616726428
1.0666233215531682
1.0532930842993702
1.0523435782779864
1.0278904655438446
1.01589828943357
0.9833341259026008
0.940953116909558
0.9473136085588754
0.9460769222332414
0.9427857135022955
1.0068724482521316
1.0870958448055503
1.0580175701765824
1.061730600878255
1.0830355579583795
1.0542473038184952
1.0689439249743173
1.1018765017618661
1.0810281802074468
1.1095261673354866
1.1202742982400946
1.1809689912229449
1.1837569204213059
1.1692028546769266
1.123545507914289
1.0811494002061257
1.07321015733426
1.0608380032389557
1.020063860150459
1.0107735844254262
1.0878611855378955
1.0708711008566174
1.0950945936525731
1.158302122677389
1.1562805424861473
1.1729747894514226
1.1634765902048925
1.2782282623331145
1.319069100737892
1.4227070221137568
1.4367993776770598
1.49702799355727
1.481525994017465
1.5078455658733605
1.471570882596692
1.4300301052683568
1.4121708120349028
1.38201575403241
1.4997289144586665
1.4347482777116192
1.4794091150179323
1.5258798925166517
1.5197456144797485
1.5854780705883378
1.6129439226891706
1.6098764996399442
1.574171035379948
1.5760159614242377
1.5341576784653639
1.493146415717838
1.5064931003094209
1.459600736001605
1.4089149691443477
1.3925638999197514
1.4123807642111978
1.4043535667675406
1.4104711691412877
1.4225803713454812
1.3916817733922326
1.4144187895785019
1.3705317331800377
1.3576366093814636
1.3135197087113593
1.3232683009462625
1.3380348508786724
1.328175218673053
1.3604484173392637
1.3361306732436022
1.3092641965833451
1.2764596111131064
1.2709982103193131
1.2516411952965052
1.2715239670610408
1.2521293979852521
1.2191201552720197
1.167754429895447
1.1272005420457722
1.11525764618536
1.136310671457834
1.1215741949251314
1.0936046095733365
1.0897757088895266
1.0590774439688457
1.0527147693996424
1.0482351430139538
1.0369326327986714
1.0314374447416235
1.018477627260079
1.0185863681700735
1.0022587704436396
0.9670974296976652
0.9558761847192606
0.9861707429535993
0.9935871184569139
0.9954737528528489
0.9822256276490736
1.269923797102711
1.2149292401668033
1.2181485801548886
1.1989951101438252
1.2119240308478374
1.1896437429301348
1.1739549041494108
1.16224383956731
1.1220835653125023
1.0826490249330378
1.0574598088663925
1.0233555368045073
1.0238301413184712
1.0064137026528661
0.9980984381776615
0.9882342640221143
1.0040746737348205
1.0373550541823333
1.0232582645978812
1.0208826742694612
1.012248197535928
0.9899447548547906
1.0392344152223054
1.0292890998492834
1.010054164145763
0.9771931524210655
0.9731079272481323
0.9436002181589801
0.9483430597190529
0.943461412596263
0.9160713116965302
0.8956376465753492
0.87237781467711
0.849350827914459
0.8608257687777119
0.9721953567221606
0.943467116956292
0.9067908943165569
0.9105915447225171
0.8891207200994801
0.8827549543780885
0.916843886208225
0.8877836086219231
0.9007990651489285
1.007170560495433
1.0630869490314736
1.0614378812435112
1.077049461154689
1.0572602139293539
1.0281701986486858
0.9933008987452082
1.0044936916919789
0.9713155708568374
0.971935887224206
0.9403690381367628
0.9310569639841365
0.9131243236995553
0.8821868720067302
0.8756020954348208
0.8694876600466197
0.880952827186147
1.085884768101422
1.0418929989513204
1.0281863561690832
0.9890301878712917
0.9740994601661995
0.9538066415828993
0.9321061671841206
0.9162414409566836
0.8943670523169205
0.8726265485799972
0.8545817951099972
0.8542545240307119
0.8518077723142324
0.8123929314346442
0.7886505791893123
0.76803268067579
0.7438874891989479
0.7393240971133087
0.7265152330337868
0.735335573531373
0.7149544611362751
0.6946005710551126
0.6828433874083185
0.6690688597362959
0.6577067983265604
0.6335848841603776
0.6247573924346362
0.6522747215464484
0.6463979557217021
0.6416552445987234
0.6379655842702433
0.6502537568223689
0.6588070599064851
0.6538922699131645
0.6386142506336531
0.6365703755883921
0.6846724916177929
0.7493387422165222
0.7672431177724849
0.755297180788736
0.7992045250181122
0.8049756303739616
0.81176308534725
0.7966371506795893
0.8140202113453329
0.7823044819635232
0.7642827332518426
0.7525482523052826
0.7973662342834767
0.7682686461203713
0.7819637428260592
0.7568234754813407
0.7413360843755304
0.7333835069201357
0.732427542140126
0.7215398605586882
0.7100012990902103
0.701429777726624
0.7334705078890078
0.7432226144683647
0.7601352848634813
0.7644113359446612
0.7519533833771855
0.7496709988502436
0.7275516417895123
0.7377265245188331
0.9136032013389167
0.9440601155289944
0.917341535848352
0.9039599975734699
0.8922485691753644
0.8956593856628388
0.8709694295440649
0.8637573274337748
0.8470603754742196
0.8244132057974898
0.8198122625262404
0.8905399580600806
0.8719299610557893
0.9089349638375187
1.0482967521348387
1.0527041269823503
1.1060824036264678
1.1249336605102918
1.1052955419024133
1.1192030031950984
1.0992599315383058
1.0650270792855694
1.0218108593366002
1.0109672265268428
0.967326710346354
0.9560890881787574
0.9513684390231314
0.9519849790929078
0.9782717663005573
0.9562523544219462
0.9829486148203784
0.9598808566189231
1.0041750811461434
0.9853054324928471
0.9849264730290725
0.9560031535269958
0.9770029282750675
0.9729312905411343
0.9641504840739105
0.9545683066400601
0.9913848561657704
0.9762859378682149
0.9479797994490572
0.9302669566312671
0.9173907454433196
0.9132914064830819
0.8887705917342904
0.8588584066104129
0.8660828061382405
0.8556483199855095
0.8395305828436876
0.8245641126405667
0.8449523903090975
0.8231700767155905
0.8208007855216197
0.8193150151272182
0.8643639426181309
0.8390522324311214
0.8269770729717557
0.8093358534737736
0.8072404353685035
0.7867232614136107
0.7698144570269241
0.771970567239287
0.7632583838650516
0.7794542135889772
0.8409217697611931
0.8515702147782515
0.8543151994369478
0.8775783994771663
0.8741799423716543
0.8567385179165363
0.8341143380653551
0.813820456774973
0.7978332812910465
0.8208451897702573
0.7850705333580962
0.7904226381182322
0.7839638782526445
0.7572521726631696
0.7603055889015143
0.7338551896942633
0.7171512475732446
0.6973547298894412
0.6854008206116241
0.6835864762822222
0.6761874422620634
0.6614597678147736
0.6863554986851467
0.7130443916362073
0.7092555065193356
0.7121658274822401
0.7034396969477946
0.7124797185943806
0.7130168815519248
0.6999442471553587
0.6949482295014052
0.6853090702513039
0.6842155652333537
0.6682001677166862
0.663328727165494
0.6488052466536736
0.7003191576069829
0.7231535034921982
0.7057853960998975
0.7046578678070475
0.7164680201065445
0.7238631615275051
0.7114443642755403
0.7049126239701449
0.7074188651151341
0.7104603747497674
0.697570347981927
0.7127438945546462
0.7032621878007427
0.6901720315292608
0.6737311721343131
0.6798932312675768
0.6599008576056075
0.6777650820623495
0.6679247190578954
0.6595015248394741
0.6738228444937973
0.6764069270299542
0.717377860813529
0.7561365850411333
0.7385554003953384
0.7350871575099569
0.7397237891163883
0.7904578041795035
0.8118536753095392
0.7952926985017149
0.7863432200373068
0.7616044186060705
0.7464898172770653
0.7381691160429888
0.7282998934684892
0.7219927582207399
0.7554218469192584
0.742177429282168
0.7541647557620139
0.7917244160647272
0.8766012434886745
0.8847011546680547
0.8693653579060499
0.8786964037699034
0.8423609463577678
0.8129065930464981
0.834127550686034
0.8245470113513174
0.8113650819690805
0.8198390046855742
0.8441362186366045
0.9095550601625616
0.9253011272938069
0.8842081896299642
0.8796218903706805
0.8896488982013459
1.075388262615535
1.1550033867144254
1.146788859091966
1.1841610834425391
1.204578148910929
1.1763939954172915
1.159508710030342
1.1481152307424605
1.1168212856894282
1.0999054795687555
1.1163408024567014
1.1273164594240797
1.1432224266080735
1.1365636818503537
1.1775234188610424
1.1569860317995393
1.1872013152424292
1.1931155070108268
1.176464399367196
1.1831455136981113
1.1736351198625317
1.1562326113009227
1.1657874247794286
1.1460883230094694
1.1713677285087931
1.1398414621867368
1.1105670720305416
1.084097995456932
1.079519567210008
1.0824110266950078
1.052238810502508
1.0349360383237576
1.0017263213006316
1.0801744412077299
1.058019123978606
1.0560177579801342
1.047016489552982
1.0536581688706261
1.0212540139512953
1.0118787272404886
0.9853159610090252
1.0135076780798087
0.993971415359823
1.0029734571198359
1.032761067325562
1.0461352768023076
1.0106970427449997
1.0049329682632135
1.0381520419586983
1.028998324675934
1.0119270157705096
1.0175036575011867
0.9898248248225301
0.9755516230494926
0.9680122214030995
0.9374399198743071
0.9497656398832851
0.9804966656059072
0.9933183323483421
1.0030813086091743
1.0000040722799473
0.9778609242599519
0.9937280010985259
0.9656045724486307
0.9652042458451566
0.958403942570502
0.9385179466726095
0.940766664767423
0.9678547601411791
0.9651508487025229
0.9462115023666275
0.9671963950547252
0.9788252239793874
0.9560519936951463
0.9941911370026355
0.9817489129310192
0.9830525620073749
0.9599773790068479
0.9392647090777874
0.9228886584293745
0.9055394685415615
0.9130009350743075
0.9499294397118574
0.9170773368752958
0.9008575270984888
0.8715105608771677
0.8456883779573694
0.8509963509604146
0.8437823258918135
0.8163693026138273
0.7866286381414115
0.7647265925598814
0.7515318359484622
0.7735652762378579
0.7597391850780107
0.7583292432867249
0.7820200116233866
0.7825900107931452
1.258119295736492
1.255396488898171
1.2550110254054445
1.2282245235907705
1.236208486191429
1.22933645146347
1.1858124192160795
1.1703972464149308
1.1425117288138644
1.1794751767557312
1.157369806987464
1.1089862493455027
1.1097729458208232
1.1276463068336215
1.081385856345506
1.0727154380351134
1.0203786210326056
1.0410658623874196
1.0281325865026039
1.0011231160381324
0.98104289346398
0.9959684010736956
1.049113515282717
1.0584625499053795
1.096429510626424
1.2845416884388225
1.314217282121764
1.3424874762559234
1.3037383708090715
1.359899915751281
1.3520499217690465
1.3247606416426858
1.2894205958110654
1.2930334103959897
1.3721024525105623
1.364809420188379
1.3466087473177804
1.363993836795082
1.3165657055954323
1.2732395837671866
1.218008184926673
1.1852933145747682
1.127772363533714
1.0865029089955913
